Time,EMG_value,Yaw,Roll,Pitch
0,186,-122.61,-134.07,114.59
100,80,-122.61,-134.07,114.59
200,47,-122.61,-134.07,114.59
300,173,-122.61,-134.07,114.59
400,44,-122.61,-134.07,114.59
500,123,-122.61,-134.07,114.59
600,122,-122.61,-134.07,114.59
700,52,-122.04,-132.93,114.59
800,22,-122.61,-132.35,115.74
900,43,-122.04,-132.93,116.88
1000,136,-122.61,-132.93,117.46
1100,124,-122.61,-132.93,117.46
1200,71,-122.61,-132.93,118.03
1300,131,-122.61,-132.93,118.03
1400,61,-123.19,-133.5,118.6
1500,67,-123.19,-133.5,118.6
1600,53,-122.61,-133.5,119.18
1700,153,-122.61,-133.5,119.18
1800,47,-122.61,-133.5,119.18
1900,47,-122.61,-133.5,119.18
2000,524,-118.03,-136.36,119.18
2100,145,-120.32,-136.94,120.89
2200,473,-120.89,-136.94,122.04
2300,242,-120.89,-136.36,123.19
2400,393,-121.47,-136.94,123.19
2500,253,-121.47,-136.94,123.19
2600,215,-120.89,-136.36,123.19
2700,272,-120.89,-137.51,122.61
2800,388,-120.89,-136.36,122.61
2900,141,-120.89,-136.36,122.61
3000,64,-122.61,-133.5,122.04
3100,212,-122.61,-132.93,123.19
3200,130,-122.61,-131.78,124.33
3300,51,-122.61,-131.78,124.33
3400,34,-121.47,-131.21,124.33
3500,146,-122.61,-131.21,123.76
3600,78,-122.61,-131.21,123.76
3700,176,-122.61,-131.21,123.76
3800,40,-122.61,-131.21,123.76
3900,25,-122.61,-131.21,123.76
4000,49,-122.61,-131.21,123.76
4100,85,-122.61,-131.21,123.76
4200,70,-122.61,-131.21,123.76
4300,51,-121.47,-131.78,123.76
4400,365,-116.88,-134.07,122.61
4500,446,-119.18,-135.79,122.61
4600,396,-119.75,-134.65,122.04
4700,454,-120.89,-134.65,121.47
4800,443,-121.47,-135.79,122.04
4900,453,-121.47,-136.36,122.04
5000,518,-121.47,-136.36,122.04
5100,141,-121.47,-136.36,122.04
5200,558,-121.47,-136.36,122.04
5300,142,-121.47,-136.36,122.04
5400,275,-123.19,-135.22,121.47
5500,116,-123.19,-134.07,122.61
5600,116,-123.19,-134.07,122.61
5700,116,-123.19,-134.07,122.61
5800,80,-122.61,-130.63,125.48
5900,85,-122.04,-130.06,126.05
6000,176,-122.04,-130.06,126.05
6100,160,-122.04,-130.06,126.05
6200,51,-122.04,-130.06,126.05
6300,51,-122.04,-130.06,126.05
6400,92,-122.04,-130.06,126.62
6500,74,-122.04,-130.06,126.05
6600,161,-121.47,-129.49,126.05
6700,36,-120.32,-130.06,125.48
6800,102,-120.32,-130.06,125.48
6900,451,-117.46,-134.07,124.9
7000,421,-119.75,-134.65,124.33
7100,412,-119.75,-134.65,124.33
7200,222,-120.89,-135.22,123.76
7300,336,-120.89,-135.79,123.76
7400,698,-120.89,-135.79,123.76
7500,338,-120.89,-135.79,123.76
7600,329,-121.47,-135.79,123.76
7700,574,-121.47,-136.36,124.33
7800,120,-120.32,-135.79,124.33
7900,1142,-122.04,-135.22,123.76
8000,42,-122.04,-132.93,123.19
8100,103,-122.61,-130.63,124.9
8200,172,-121.47,-128.34,126.62
8300,137,-120.32,-128.34,127.2
8400,124,-120.32,-128.34,127.2
8500,121,-120.32,-127.77,127.2
8600,100,-120.32,-127.77,127.77
8700,141,-120.32,-127.77,127.77
8800,107,-120.32,-127.77,127.77
8900,41,-120.32,-127.77,127.77
9000,46,-119.75,-127.2,128.34
9100,90,-119.18,-127.2,127.77
9200,88,-118.6,-127.77,127.2
9300,236,-118.6,-128.34,126.62
9400,466,-116.31,-131.78,126.05
9500,765,-120.32,-134.65,126.05
9600,765,-120.32,-134.65,126.05
9700,765,-122.61,-135.79,124.33
9800,495,-122.61,-136.36,124.33
9900,458,-123.19,-136.36,123.19
10000,364,-122.04,-136.36,123.76
10100,482,-122.04,-136.36,123.76
10200,539,-122.61,-136.36,123.76
10300,236,-121.47,-136.36,124.9
10400,395,-122.04,-136.36,124.9
10500,307,-122.61,-135.79,124.33
10600,148,-122.61,-135.79,124.33
10700,102,-123.19,-135.79,123.76
10800,199,-123.76,-134.07,124.33
10900,68,-124.33,-134.07,124.9
11000,344,-123.19,-130.63,126.62
11100,135,-122.61,-130.06,127.2
11200,18,-122.61,-130.63,127.2
11300,55,-123.19,-130.63,126.62
11400,80,-122.61,-130.06,127.2
11500,145,-122.04,-130.06,127.2
11600,89,-122.04,-130.06,127.2
11700,63,-122.04,-130.06,127.2
11800,157,-122.04,-130.06,126.62
11900,103,-119.75,-131.78,124.9
12000,151,-120.32,-134.07,123.19
12100,276,-122.61,-134.65,123.76
12200,114,-123.19,-135.22,122.04
12300,450,-123.76,-136.36,122.04
12400,582,-124.33,-136.36,121.47
12500,379,-124.33,-136.36,121.47
12600,383,-123.76,-136.36,122.04
12700,260,-123.76,-135.79,123.19
12800,582,-123.76,-135.79,123.19
12900,582,-123.76,-135.79,123.19
13000,92,-123.76,-135.79,123.19
13100,303,-123.19,-132.93,122.04
13200,118,-123.76,-132.35,122.04
13300,46,-123.76,-131.21,122.04
13400,75,-123.76,-131.21,122.04
13500,88,-123.19,-130.63,123.76
13600,170,-121.47,-128.92,124.33
13700,71,-121.47,-128.92,124.33
13800,197,-121.47,-128.92,124.33
13900,133,-121.47,-128.92,124.33
14000,69,-121.47,-128.92,124.33
14100,156,-120.89,-128.92,124.9
14200,32,-119.75,-129.49,124.33
14300,400,-117.46,-131.78,124.9
14400,367,-117.46,-132.35,123.19
14500,633,-120.32,-132.35,120.89
14600,686,-121.47,-133.5,122.04
14700,2014,-121.47,-132.93,122.61
14800,466,-120.89,-131.78,123.76
14900,466,-120.89,-131.78,123.76
15000,462,-119.75,-131.78,124.9
15100,122,-119.18,-130.06,124.9
15200,242,-118.03,-128.34,123.76
15300,220,-117.46,-126.62,126.05
15400,111,-118.03,-124.33,127.77
15500,123,-119.18,-125.48,128.92
15600,166,-118.03,-123.76,131.21
15700,129,-118.6,-124.33,132.35
15800,86,-116.88,-123.76,132.93
15900,45,-117.46,-125.48,133.5
16000,79,-116.88,-124.9,132.93
16100,44,-116.31,-125.48,132.35
16200,44,-116.31,-125.48,132.35
16300,624,-116.88,-131.78,131.78
16400,411,-116.31,-130.06,127.2
16500,660,-118.6,-131.21,124.9
16600,190,-119.75,-131.21,124.33
16700,615,-120.32,-130.63,124.33
16800,990,-120.89,-131.21,124.9
16900,292,-120.89,-130.63,123.76
17000,128,-120.32,-130.63,124.9
17100,1310,-120.89,-131.21,124.9
17200,1032,-120.32,-130.63,124.33
17300,364,-119.75,-130.06,123.76
17400,268,-119.18,-130.06,123.76
17500,88,-116.88,-126.62,125.48
17600,89,-116.31,-125.48,126.62
17700,89,-116.31,-125.48,126.62
17800,76,-112.87,-122.61,127.2
17900,43,-113.45,-122.61,127.77
18000,39,-112.87,-121.47,127.77
18100,139,-112.87,-122.04,128.34
18200,91,-112.87,-122.61,128.92
18300,177,-113.45,-124.33,128.92
18400,104,-112.87,-125.48,128.34
18500,616,-113.45,-130.63,122.61
18600,1182,-118.6,-132.93,120.32
18700,212,-119.18,-133.5,119.18
18800,840,-120.89,-135.22,119.18
18900,480,-121.47,-135.22,119.75
19000,129,-121.47,-134.65,120.89
19100,607,-122.04,-135.22,121.47
19200,1134,-121.47,-134.65,120.89
19300,1294,-121.47,-135.22,120.89
19400,291,-121.47,-134.07,121.47
19500,156,-121.47,-134.07,121.47
19600,99,-120.89,-132.93,123.76
19700,127,-120.32,-131.21,123.76
19800,19,-118.6,-128.92,124.9
19900,66,-118.03,-128.92,125.48
20000,83,-118.6,-129.49,126.62
20100,38,-118.6,-128.92,127.77
20200,33,-118.03,-129.49,127.77
20300,143,-117.46,-130.06,127.2
20400,54,-118.03,-131.78,127.2
20500,63,-117.46,-132.93,128.34
20600,143,-117.46,-134.07,128.92
20700,442,-118.03,-135.79,126.62
20800,247,-122.61,-137.51,120.89
20900,236,-123.76,-138.66,118.6
21000,416,-125.48,-139.23,116.88
21100,183,-125.48,-139.23,116.88
21200,930,-126.05,-139.23,117.46
21300,1100,-126.05,-139.23,117.46
21400,331,-126.05,-139.8,118.03
21500,331,-126.05,-139.8,118.03
21600,217,-125.48,-139.23,119.75
21700,386,-123.76,-137.51,119.75
21800,48,-122.61,-135.79,122.04
21900,102,-122.61,-133.5,121.47
22000,110,-120.32,-131.78,121.47
22100,141,-120.32,-131.78,120.89
22200,100,-119.75,-130.63,122.04
22300,202,-118.6,-130.06,123.76
22400,177,-118.6,-129.49,126.05
22500,80,-117.46,-128.34,127.77
22600,192,-118.03,-129.49,130.06
22700,40,-119.18,-131.21,132.93
22800,78,-118.6,-133.5,134.65
22900,958,-116.31,-136.36,127.2
23000,429,-115.16,-132.35,113.45
23100,335,-118.03,-134.65,115.16
23200,127,-119.18,-135.22,115.74
23300,325,-120.89,-135.79,115.74
23400,579,-121.47,-135.79,117.46
23500,255,-121.47,-136.36,116.88
23600,494,-121.47,-136.36,116.88
23700,847,-121.47,-136.36,116.88
23800,206,-121.47,-135.22,118.03
23900,306,-122.04,-135.22,118.6
24000,1156,-122.04,-135.22,119.18
24100,484,-121.47,-135.22,118.6
24200,474,-122.04,-135.22,118.6
24300,71,-120.32,-132.93,119.75
24400,120,-120.32,-134.65,120.32
24500,55,-122.61,-131.21,123.76
24600,226,-122.04,-130.06,123.76
24700,112,-120.32,-128.92,125.48
24800,107,-119.18,-127.77,126.62
24900,113,-118.03,-127.77,127.2
25000,49,-117.46,-127.2,126.05
25100,92,-118.03,-127.77,126.62
25200,47,-117.46,-128.34,127.2
25300,179,-116.88,-128.92,127.2
25400,153,-114.59,-130.63,125.48
25500,342,-116.88,-133.5,121.47
25600,512,-119.18,-134.07,118.6
25700,926,-120.89,-136.36,116.31
25800,926,-120.89,-136.36,116.31
25900,505,-120.89,-136.94,115.74
26000,218,-121.47,-137.51,116.31
26100,364,-121.47,-136.94,117.46
26200,452,-120.89,-135.79,118.03
26300,332,-120.89,-135.79,118.6
26400,167,-120.89,-135.22,119.75
26500,327,-119.75,-134.07,122.61
26600,158,-119.75,-129.49,124.33
26700,158,-119.75,-129.49,124.33
26800,240,-119.18,-126.62,126.05
26900,207,-119.18,-126.62,126.05
27000,207,-119.18,-126.62,126.05
27100,133,-119.18,-127.2,127.2
27200,40,-119.75,-128.34,127.2
27300,73,-118.6,-127.77,127.77
27400,70,-118.03,-127.77,128.92
27500,70,-118.03,-127.77,128.92
27600,654,-116.31,-133.5,126.62
27700,515,-119.18,-136.36,114.59
27800,146,-119.75,-138.08,114.59
27900,497,-120.32,-139.8,114.59
28000,986,-121.47,-139.8,115.16
28100,267,-121.47,-139.23,116.88
28200,119,-122.04,-140.37,116.88
28300,352,-122.04,-140.37,117.46
28400,887,-123.19,-141.52,117.46
28500,369,-122.61,-140.37,118.03
28600,122,-122.04,-138.66,120.89
28700,279,-122.61,-138.66,123.19
28800,203,-122.61,-134.07,126.62
28900,226,-122.61,-133.5,127.2
29000,293,-123.19,-131.78,130.63
29100,39,-123.19,-132.35,131.78
29200,127,-122.61,-132.35,133.5
29300,190,-123.19,-132.35,133.5
29400,203,-123.19,-132.35,133.5
29500,286,-123.19,-135.22,133.5
29600,59,-123.76,-138.08,131.78
29700,59,-123.76,-138.08,131.78
29800,147,-121.47,-139.23,115.16
29900,520,-122.61,-143.81,110.01
30000,349,-121.47,-144.39,110.01
30100,1467,-122.04,-145.53,110.58
30200,412,-122.61,-146.1,112.87
30300,355,-122.04,-146.1,114.02
30400,286,-122.61,-146.68,114.02
30500,375,-122.04,-146.1,114.02
30600,227,-123.19,-146.1,115.74
30700,311,-122.61,-143.81,115.74
30800,832,-122.04,-140.95,119.18
30900,58,-122.04,-140.37,120.32
31000,152,-122.04,-136.36,122.04
31100,173,-120.89,-132.93,123.76
31200,302,-119.75,-131.78,124.9
31300,167,-118.6,-131.21,127.2
31400,196,-118.03,-130.06,128.92
31500,71,-118.03,-131.21,128.34
31600,36,-118.03,-131.78,127.77
31700,196,-119.18,-133.5,128.34
31800,150,-119.18,-135.79,128.92
31900,165,-118.6,-135.79,129.49
32000,386,-118.6,-142.67,115.16
32100,505,-119.18,-144.39,108.29
32200,124,-118.6,-143.81,107.72
32300,686,-118.6,-144.96,108.29
32400,354,-119.18,-146.1,110.58
32500,654,-120.89,-147.25,111.73
32600,654,-120.89,-147.25,111.73
32700,676,-121.47,-148.4,113.45
32800,427,-122.61,-148.97,115.16
32900,434,-122.61,-148.97,114.59
33000,282,-123.19,-147.82,114.59
33100,121,-123.19,-145.53,115.74
33200,102,-123.19,-146.1,118.03
33300,156,-124.33,-142.67,122.04
33400,40,-124.33,-140.37,124.33
33500,71,-123.76,-137.51,126.05
33600,68,-123.19,-136.94,127.2
33700,254,-123.76,-137.51,130.06
33800,30,-124.33,-138.08,132.93
33900,178,-124.9,-138.08,133.5
34000,77,-124.33,-139.23,133.5
34100,124,-123.76,-139.8,134.07
34200,382,-121.47,-143.81,127.77
34300,323,-122.04,-144.96,116.31
34400,220,-120.89,-143.24,112.3
34500,288,-120.89,-143.81,111.15
34600,428,-120.89,-144.39,112.87
34700,359,-122.04,-144.39,115.16
34800,594,-122.04,-144.39,116.88
34900,617,-122.61,-144.39,119.18
35000,107,-122.61,-143.24,120.32
35100,83,-122.04,-142.67,121.47
35200,311,-122.61,-142.09,121.47
35300,266,-122.61,-142.67,121.47
35400,416,-122.61,-142.09,121.47
35500,182,-123.76,-141.52,119.75
35600,89,-123.76,-142.09,121.47
35700,153,-126.05,-142.09,123.76
35800,148,-126.62,-140.37,126.62
35900,214,-126.62,-138.08,131.21
36000,75,-127.2,-136.94,132.93
36100,131,-127.2,-136.94,136.94
36200,128,-126.05,-135.79,139.8
36300,57,-127.2,-135.79,140.95
36400,88,-127.2,-136.94,141.52
36500,236,-126.05,-136.36,142.67
36600,24,-125.48,-136.94,142.67
36700,134,-123.19,-136.94,142.67
36800,100,-124.33,-138.66,141.52
36900,184,-127.2,-142.09,141.52
37000,321,-128.92,-144.39,138.66
37100,404,-127.2,-143.24,126.62
37200,608,-126.62,-142.67,124.33
37300,259,-127.2,-142.67,123.76
37400,606,-126.05,-142.09,123.76
37500,251,-126.05,-142.09,123.76
37600,294,-125.48,-141.52,123.19
37700,97,-125.48,-140.95,123.76
37800,74,-126.62,-142.09,124.9
37900,204,-127.77,-138.08,127.2
38000,142,-128.92,-136.94,128.34
38100,309,-128.92,-135.79,128.92
38200,123,-130.63,-136.94,131.21
38300,137,-129.49,-136.94,132.93
38400,143,-128.34,-136.94,133.5
38500,180,-128.34,-136.94,133.5
38600,125,-127.77,-136.94,134.07
38700,195,-126.05,-138.08,134.07
38800,177,-124.9,-139.23,132.35
38900,358,-126.05,-139.23,124.33
39000,294,-127.2,-143.81,120.89
39100,337,-128.92,-145.53,120.89
39200,301,-130.06,-145.53,122.61
39300,242,-129.49,-144.96,122.61
39400,437,-129.49,-144.39,122.61
39500,691,-128.92,-144.39,123.76
39600,321,-128.92,-143.81,124.33
39700,125,-128.92,-143.24,124.9
39800,411,-129.49,-142.67,123.76
39900,411,-129.49,-142.67,123.76
40000,244,-128.92,-141.52,124.33
40100,282,-128.92,-140.95,124.9
40200,76,-129.49,-142.67,126.05
40300,601,-128.92,-139.8,130.06
40400,601,-128.92,-139.8,130.06
40500,122,-131.21,-135.79,136.94
40600,239,-132.35,-136.36,142.09
40700,85,-132.35,-138.08,144.39
40800,60,-131.21,-136.36,147.25
40900,73,-128.92,-135.79,150.11
41000,164,-128.34,-135.79,152.98
41100,24,-128.92,-136.36,155.27
41200,43,-127.77,-135.79,156.42
41300,81,-126.62,-135.22,150.11
41400,125,-126.05,-135.79,145.53
41500,1160,-122.04,-138.66,112.87
41600,387,-124.33,-138.08,112.87
41700,1032,-125.48,-138.66,115.74
41800,385,-126.05,-138.08,116.31
41900,1060,-126.62,-138.66,116.88
42000,543,-126.62,-138.66,117.46
42100,407,-126.62,-138.66,117.46
42200,407,-127.2,-139.23,119.75
42300,61,-127.77,-139.8,123.76
42400,371,-130.63,-139.23,128.92
42500,505,-131.78,-138.08,132.35
42600,176,-133.5,-138.08,136.94
42700,31,-132.93,-136.94,139.23
42800,64,-132.93,-137.51,138.08
42900,317,-132.35,-138.08,137.51
43000,52,-131.21,-137.51,137.51
43100,448,-130.06,-140.37,138.08
43200,1156,-127.77,-139.23,134.07
43300,617,-127.77,-140.95,126.05
43400,407,-127.2,-140.95,122.61
43500,860,-127.2,-142.09,122.04
43600,668,-127.77,-141.52,123.19
43700,578,-128.34,-141.52,124.33
43800,578,-128.34,-141.52,124.33
43900,384,-128.34,-139.8,123.76
44000,668,-127.77,-139.8,125.48
44100,164,-129.49,-139.8,128.92
44200,294,-130.63,-137.51,130.63
44300,159,-131.78,-138.66,131.78
44400,90,-134.07,-138.66,135.22
44500,52,-134.65,-139.8,137.51
44600,101,-135.22,-139.8,139.8
44700,257,-135.22,-140.95,140.95
44800,197,-134.07,-140.37,139.8
44900,233,-131.21,-139.8,137.51
45000,568,-130.63,-140.37,131.78
45100,285,-129.49,-141.52,120.89
45200,430,-128.34,-141.52,119.18
45300,329,-128.92,-142.09,118.6
45400,722,-129.49,-141.52,118.03
45500,364,-128.92,-141.52,119.18
45600,1313,-128.92,-142.67,119.18
45700,641,-129.49,-142.67,119.75
45800,196,-129.49,-143.24,119.75
45900,459,-130.06,-142.09,119.18
46000,445,-130.06,-142.09,119.18
46100,38,-130.63,-140.95,123.76
46200,314,-131.78,-139.23,125.48
46300,216,-132.35,-138.66,126.62
46400,220,-132.35,-138.08,127.2
46500,346,-133.5,-137.51,127.77
46600,98,-132.35,-137.51,128.34
46700,147,-132.35,-137.51,128.34
46800,54,-132.35,-137.51,128.34
46900,54,-132.93,-137.51,128.92
47000,239,-133.5,-138.66,128.92
47100,181,-133.5,-138.66,129.49
47200,74,-134.07,-138.66,129.49
47300,183,-134.07,-138.66,129.49
47400,94,-134.07,-138.66,129.49
47500,179,-134.07,-138.66,129.49
47600,278,-134.07,-139.23,129.49
47700,204,-134.07,-139.23,130.06
47800,114,-134.07,-139.23,130.06
47900,267,-134.07,-139.23,130.06
