Time,EMG_value,Yaw,Roll,Pitch
0,76,-175.33,-127.2,99.12
100,48,-175.33,-127.2,99.12
200,94,-175.33,-127.2,99.12
300,52,-175.33,-127.2,99.69
400,88,-175.9,-127.77,99.69
500,44,-174.75,-127.77,99.69
600,133,-175.33,-127.2,100.27
700,73,-175.33,-127.2,100.84
800,86,-175.33,-127.2,100.84
900,17,-175.33,-127.2,100.84
1000,103,-175.33,-127.2,100.84
1100,108,-175.33,-127.77,100.84
1200,88,-175.33,-127.77,100.84
1300,29,-175.33,-127.77,100.84
1400,59,-174.75,-127.2,101.41
1500,29,-174.75,-127.77,101.41
1600,85,-174.75,-126.62,101.99
1700,84,-174.18,-127.2,102.56
1800,82,-174.18,-127.2,102.56
1900,50,-174.18,-127.2,102.56
2000,45,-174.18,-127.2,102.56
2100,57,-174.18,-127.2,102.56
2200,41,-174.75,-127.2,102.56
2300,86,-174.75,-127.2,102.56
2400,77,-174.75,-127.2,102.56
2500,100,-174.75,-127.77,102.56
2600,56,-174.75,-127.77,103.13
2700,538,-174.18,-128.92,102.56
2800,115,-174.18,-128.92,103.13
2900,1144,-171.89,-129.49,101.99
3000,445,-171.31,-130.06,101.41
3100,981,-171.31,-130.06,100.84
3200,593,-171.31,-130.06,101.41
3300,600,-171.31,-129.49,101.99
3400,76,-171.89,-129.49,101.99
3500,34,-172.46,-128.92,102.56
3600,42,-174.18,-128.92,103.13
3700,30,-174.75,-128.92,104.28
3800,45,-174.18,-130.06,104.28
3900,61,-174.18,-129.49,105.42
4000,49,-174.18,-130.06,105.42
4100,105,-174.18,-130.06,105.42
4200,105,-174.18,-130.06,105.42
4300,31,-174.18,-130.06,105.42
4400,25,-174.18,-130.06,105.42
4500,79,-174.18,-130.06,105.42
4600,275,-174.75,-131.21,105.42
4700,83,-173.61,-131.78,104.85
4800,205,-173.03,-131.21,104.85
4900,842,-172.46,-132.35,104.85
5000,1106,-172.46,-134.07,105.42
5100,218,-172.46,-134.07,104.85
5200,219,-172.46,-134.07,105.42
5300,89,-172.46,-134.07,105.42
5400,89,-174.18,-134.07,105.42
5500,16,-175.33,-133.5,107.14
5600,95,-175.33,-134.65,106.57
5700,24,-175.33,-134.65,107.14
5800,86,-175.33,-134.65,107.14
5900,96,-175.33,-135.22,107.72
7000,662,-173.61,-134.65,106.57
7100,428,-173.61,-134.65,106.57
7200,156,-173.61,-134.65,106.57
7300,72,-173.61,-134.65,107.14
7400,91,-174.18,-134.07,108.29
7500,37,-175.33,-135.22,108.86
7600,95,-175.33,-135.79,109.43
7700,37,-175.9,-135.79,110.58
7800,43,-175.9,-135.79,110.58
7900,61,-175.9,-136.36,110.01
8000,166,-175.33,-136.94,110.58
8100,29,-175.33,-136.94,110.58
8200,29,-175.33,-136.94,110.58
8300,608,-174.75,-136.94,109.43
8400,1231,-173.61,-135.79,108.86
8500,532,-173.03,-135.79,109.43
8600,406,-173.03,-135.79,109.43
8700,186,-173.03,-135.79,109.43
8800,95,-173.61,-135.79,108.86
8900,48,-175.9,-134.65,110.58
9000,63,-175.33,-135.22,111.15
9100,82,-175.9,-135.79,111.73
9200,68,-175.9,-136.36,111.73
9300,114,-175.9,-136.36,112.3
9400,45,-175.9,-136.36,112.3
9500,27,-175.9,-136.36,112.3
9600,27,-175.9,-136.36,112.3
9700,66,-175.9,-136.36,112.3
9800,69,-176.47,-135.79,112.87
9900,57,-176.47,-136.36,112.3
10000,71,-175.9,-136.94,112.87
10100,1147,-174.75,-138.66,111.73
10200,448,-173.61,-136.94,111.15
10300,563,-172.46,-135.79,111.15
10400,1603,-172.46,-135.79,111.15
10500,271,-172.46,-135.79,111.15
10600,79,-173.61,-136.94,111.15
10700,95,-174.75,-135.79,112.3
10800,42,-175.9,-136.94,112.87
10900,10,-175.9,-136.94,113.45
11000,117,-176.47,-136.94,114.02
11100,30,-175.9,-137.51,114.59
11200,37,-175.9,-137.51,114.59
11300,36,-175.9,-137.51,114.59
11400,36,-175.9,-137.51,114.59
11500,85,-175.9,-137.51,114.59
11600,23,-175.9,-137.51,114.59
11700,29,-175.9,-137.51,114.59
11800,804,-174.75,-138.66,114.02
11900,303,-174.18,-137.51,113.45
12000,456,-173.03,-136.94,113.45
12100,460,-173.03,-136.94,113.45
12200,350,-173.03,-136.94,113.45
12300,244,-173.03,-136.94,113.45
12400,65,-174.18,-138.66,112.87
12500,78,-174.75,-138.08,114.59
12600,40,-175.33,-137.51,116.31
12700,32,-176.47,-138.66,116.88
12800,50,-176.47,-138.66,116.88
12900,111,-176.47,-139.23,117.46
13000,73,-176.47,-139.23,118.03
13100,129,-176.47,-139.23,118.03
13200,76,-176.47,-139.8,118.03
13300,195,-176.47,-140.37,117.46
13400,590,-174.18,-138.66,115.16
13500,370,-173.61,-138.66,116.31
13600,370,-173.61,-138.66,116.31
13700,364,-173.03,-138.66,115.16
13800,1444,-173.03,-138.08,115.74
13900,138,-173.03,-138.66,116.31
14000,191,-174.18,-139.23,116.31
14100,153,-174.18,-139.23,116.31
14200,60,-174.18,-139.23,116.31
14300,38,-176.47,-138.08,117.46
14400,94,-176.47,-138.66,119.18
14500,108,-177.04,-139.8,119.18
14600,40,-177.04,-139.8,119.75
14700,40,-177.04,-139.8,119.75
14800,58,-177.62,-140.95,120.32
14900,495,-177.04,-142.67,119.75
15000,351,-175.9,-141.52,118.6
15100,612,-175.33,-140.37,120.89
15200,361,-174.75,-143.24,122.04
15300,1147,-174.75,-141.52,121.47
15400,700,-174.75,-140.95,122.04
15500,370,-174.75,-140.95,122.04
15600,258,-174.75,-140.95,122.04
15700,65,-174.75,-138.66,120.89
15800,164,-175.9,-134.65,119.75
15900,68,-175.9,-134.65,119.75
16000,60,-177.04,-139.23,121.47
16100,33,-177.04,-138.66,122.04
16200,32,-177.62,-138.66,122.61
16300,18,-177.62,-139.23,122.61
16400,30,-177.62,-139.23,122.61
16500,44,-177.62,-139.23,122.61
16600,62,-177.62,-139.23,122.61
16700,150,-177.62,-139.8,122.04
16800,150,-177.62,-139.8,122.04
16900,734,-174.75,-140.37,120.89
17000,863,-173.61,-140.95,122.61
17100,347,-173.61,-139.23,124.33
17200,1021,-173.61,-139.23,124.33
17300,508,-174.18,-139.8,124.33
17400,171,-175.33,-140.95,124.9
17500,64,-174.75,-139.8,123.76
17600,40,-175.33,-133.5,122.04
17700,80,-176.47,-136.36,123.19
17800,50,-176.47,-137.51,124.33
17900,69,-176.47,-138.08,124.9
18000,55,-177.62,-138.66,124.9
18100,78,-177.62,-138.66,124.9
18200,37,-177.62,-138.66,124.9
18300,79,-177.62,-138.66,124.9
18400,58,-177.62,-138.66,124.9
18500,25,-177.62,-138.66,124.9
18600,116,-177.62,-139.23,124.9
18700,354,-174.75,-140.37,123.19
18800,511,-173.61,-138.66,122.04
18900,436,-173.61,-138.66,122.04
19000,365,-173.61,-139.23,122.61
19100,872,-174.75,-140.95,122.04
19200,852,-174.75,-140.95,122.04
19300,838,-174.75,-140.95,122.04
19400,57,-174.18,-142.09,122.04
19500,107,-174.18,-142.67,121.47
19600,47,-177.04,-142.67,124.33
19700,136,-177.62,-140.95,126.05
19800,84,-178.76,-142.09,126.62
19900,62,-178.76,-142.67,126.62
20000,155,-178.76,-142.67,126.62
20100,30,-178.76,-142.67,126.62
20200,78,-178.76,-142.67,126.62
20300,128,-178.76,-142.67,126.62
20400,94,-178.76,-142.67,126.62
20500,94,-178.76,-142.67,126.62
20600,845,-176.47,-143.24,126.62
20700,481,-175.33,-142.67,127.2
20800,248,-173.61,-142.09,127.2
20900,431,-173.61,-142.09,127.77
21000,455,-174.18,-142.67,127.77
21100,523,-175.33,-143.81,127.77
21200,706,-174.75,-144.39,128.92
21300,648,-174.75,-144.39,128.92
21400,209,-175.33,-143.81,126.62
21500,86,-175.33,-140.95,126.05
21600,62,-177.62,-141.52,128.34
21700,139,-178.19,-142.09,128.34
21800,53,-179.34,-143.81,128.92
21900,103,-179.34,-143.81,130.63
22000,42,-179.34,-143.81,130.63
22100,94,-179.34,-143.81,130.63
22200,65,-179.34,-143.81,130.63
22300,91,-179.34,-143.81,130.63
22400,164,-179.34,-144.96,130.06
22500,365,-179.34,-145.53,129.49
22600,815,-177.62,-144.39,128.92
22700,130,-175.9,-143.24,128.34
22800,669,-175.9,-143.24,128.34
22900,337,-177.04,-144.96,129.49
23000,941,-177.62,-145.53,129.49
23100,941,-177.62,-145.53,129.49
23200,272,-177.62,-146.1,130.06
23300,139,-178.19,-147.25,128.92
23400,101,-177.04,-144.96,127.77
23500,79,-177.62,-140.37,129.49
23600,90,-178.19,-141.52,130.63
23700,89,-179.34,-143.81,130.06
23800,71,-179.91,-143.24,131.21
23900,77,-179.91,-143.81,131.21
24000,38,-179.91,-143.81,131.21
24100,42,-179.91,-143.81,131.21
24200,28,-179.91,-143.81,131.21
24300,25,179.91,-143.81,131.21
24400,266,179.91,-144.39,130.63
24500,483,-178.76,-144.96,130.63
24600,481,-177.04,-143.24,128.92
24700,295,-177.04,-143.24,128.92
24800,774,-175.9,-143.24,128.34
24900,1544,-175.9,-143.24,128.34
25000,1303,-177.04,-144.39,128.34
25100,1159,-177.04,-144.39,128.34
25200,141,-177.04,-144.39,128.92
25300,110,-177.62,-144.96,128.92
25400,119,-179.34,-144.96,130.63
25500,115,179.91,-144.96,132.35
25600,123,178.76,-146.68,132.93
25700,35,178.76,-146.68,133.5
25800,51,178.76,-146.68,133.5
25900,60,178.76,-146.68,133.5
26000,27,178.76,-146.68,133.5
26100,31,178.19,-146.1,132.93
26200,45,179.91,-144.39,132.93
26300,71,-179.91,-144.96,131.21
26400,47,-175.9,-142.67,130.63
26500,270,-174.75,-138.66,128.34
26600,460,-171.89,-132.93,128.34
26700,1495,-171.31,-128.92,129.49
26800,1004,-171.89,-127.77,128.92
26900,438,-171.89,-127.77,129.49
27000,438,-171.89,-127.77,129.49
27100,175,-171.89,-129.49,129.49
27200,71,-172.46,-128.92,128.92
27300,31,-173.03,-128.92,129.49
27400,78,-174.18,-131.21,131.78
27500,38,-175.33,-131.78,132.93
27600,54,-175.9,-132.35,133.5
27700,54,-175.9,-132.35,133.5
27800,60,-175.9,-132.93,133.5
27900,82,-175.9,-132.93,133.5
28000,37,-175.9,-132.93,133.5
28100,87,-175.9,-132.93,133.5
28200,28,-175.33,-133.5,133.5
28300,243,-173.61,-132.35,131.78
28400,478,-171.89,-130.06,132.35
28500,515,-171.31,-130.06,132.35
28600,146,-171.31,-129.49,132.93
28700,572,-171.89,-130.06,133.5
28800,267,-171.89,-131.21,133.5
28900,335,-171.89,-130.63,132.93
29000,318,-171.89,-130.63,132.93
29100,72,-171.89,-130.06,131.78
29200,123,-173.03,-130.06,132.93
29300,36,-175.33,-132.35,133.5
29400,22,-175.33,-132.93,134.07
29500,46,-175.33,-133.5,134.65
29600,80,-175.33,-134.07,135.22
29700,51,-176.47,-134.07,135.79
29800,174,-177.04,-135.22,135.22
29900,76,-175.9,-134.65,135.22
30000,468,-175.33,-135.22,135.22
30100,215,-173.61,-134.07,134.07
30200,739,-173.61,-132.93,132.93
30300,713,-173.03,-133.5,133.5
30400,560,-173.03,-133.5,133.5
30500,491,-173.03,-134.07,132.93
30600,313,-173.03,-134.07,132.93
30700,1069,-173.03,-134.07,132.93
30800,362,-173.03,-134.07,132.93
30900,90,-173.03,-134.07,132.93
31000,51,-173.61,-134.65,133.5
31100,57,-174.75,-135.79,135.79
31200,105,-175.9,-135.79,135.22
31300,123,-177.04,-137.51,136.36
31400,32,-177.04,-138.66,137.51
31500,89,-177.04,-138.66,137.51
31600,24,-177.04,-138.66,137.51
31700,71,-177.04,-138.66,137.51
31800,582,-177.04,-138.66,137.51
31900,429,-174.75,-137.51,135.22
32000,541,-171.89,-134.07,133.5
32100,752,-171.89,-133.5,133.5
32200,387,-171.31,-133.5,133.5
32300,462,-171.89,-132.35,133.5
32400,366,-171.89,-132.35,132.93
32500,148,-171.89,-132.35,133.5
32600,283,-171.89,-133.5,133.5
32700,233,-171.89,-134.07,133.5
32800,66,-173.03,-134.07,134.65
32900,98,-174.75,-135.22,136.94
33000,67,-174.75,-135.79,137.51
33100,47,-177.04,-138.08,138.08
33200,54,-177.04,-138.08,138.08
33300,83,-176.47,-138.66,138.66
33400,83,-176.47,-138.66,138.66
33500,17,-177.04,-138.66,138.66
33600,123,-177.04,-138.66,138.66
33700,125,-176.47,-139.23,138.08
33800,521,-173.03,-134.07,136.36
33900,538,-171.89,-132.93,136.36
34000,663,-171.31,-132.93,136.94
34100,1792,-171.89,-132.93,136.36
34200,543,-172.46,-134.07,136.94
34300,330,-173.03,-134.65,137.51
34400,537,-173.03,-134.65,137.51
34500,79,-173.03,-134.65,135.79
34600,133,-173.03,-132.35,136.36
34700,32,-175.33,-134.65,138.66
34800,91,-175.33,-135.22,138.66
34900,130,-177.04,-136.94,139.23
35000,72,-177.04,-137.51,139.8
35100,56,-177.04,-137.51,139.8
35200,36,-177.04,-137.51,139.8
35300,48,-177.04,-138.08,139.23
35400,53,-177.04,-138.08,139.23
35500,139,-177.04,-138.08,139.23
35600,55,-177.04,-138.08,139.23
35700,56,-177.04,-138.66,139.23
35800,316,-176.47,-138.08,139.23
35900,370,-173.03,-134.07,138.08
36000,266,-172.46,-134.07,137.51
36100,281,-172.46,-134.07,136.94
36200,842,-173.03,-134.65,137.51
36300,916,-173.03,-134.65,137.51
36400,728,-173.03,-134.65,137.51
36500,23,-173.03,-134.65,137.51
36600,77,-173.03,-135.22,136.94
36700,34,-172.46,-135.79,137.51
36800,24,-173.61,-135.79,139.23
36900,15,-175.33,-137.51,139.8
37000,85,-176.47,-139.23,140.37
37100,50,-176.47,-139.23,140.95
37200,35,-176.47,-139.23,140.95
37300,84,-176.47,-139.8,140.95
37400,48,-177.04,-139.23,141.52
37500,53,-177.04,-139.23,141.52
37600,19,-177.04,-139.23,141.52
37700,41,-177.04,-139.23,141.52
37800,112,-177.04,-139.8,140.95
37900,453,-173.61,-136.94,138.08
38000,719,-170.74,-134.07,138.66
38100,758,-170.74,-134.07,138.08
38200,806,-171.31,-133.5,137.51
38300,1701,-170.74,-133.5,137.51
38400,882,-171.31,-133.5,137.51
38500,561,-170.17,-133.5,138.08
38600,102,-170.74,-134.07,138.08
38700,78,-170.74,-134.65,138.08
38800,29,-172.46,-135.22,139.8
38900,41,-174.18,-137.51,141.52
39000,74,-174.75,-138.08,141.52
39100,82,-176.47,-140.37,142.67
39200,80,-176.47,-140.37,142.67
39300,24,-176.47,-140.37,142.67
39400,59,-176.47,-140.37,142.67
39500,97,-176.47,-140.37,142.67
39600,126,-176.47,-139.8,143.24
39700,42,-176.47,-139.8,143.24
39800,55,-176.47,-139.8,143.24
39900,90,-176.47,-139.8,143.24
40000,68,-176.47,-139.8,143.24
40100,120,-176.47,-139.8,143.24
40200,54,-176.47,-139.8,143.24
40300,107,-176.47,-139.8,143.24
40400,84,-176.47,-139.8,143.24
40500,123,-176.47,-139.8,143.24
40600,22,-176.47,-139.8,143.24
40700,29,-177.04,-139.8,143.24
40800,51,-177.04,-139.8,143.24
40900,29,-176.47,-139.23,143.81
