Time,EMG_value,Yaw,Roll,Pitch
0,83,88.81,-154.7,102.56
100,111,87.66,-151.26,103.71
200,204,86.52,-146.1,104.28
300,83,87.66,-140.95,105.42
400,105,89.38,-134.65,106.0
500,60,88.24,-134.65,106.57
600,27,88.24,-134.65,106.57
700,32,88.24,-135.22,106.57
800,49,88.24,-135.22,106.57
900,36,88.81,-135.22,107.72
1000,31,88.81,-134.65,107.72
1100,51,88.24,-134.65,108.29
1200,23,88.24,-134.65,108.29
1300,34,88.24,-135.22,108.86
1400,63,87.66,-136.36,110.01
1500,79,88.24,-140.95,110.58
1600,102,88.24,-148.97,111.15
1700,77,87.66,-173.03,112.3
1800,80,93.39,166.73,108.86
1900,80,93.39,166.73,108.86
2000,25,111.15,160.43,99.12
2100,114,127.77,162.72,88.81
2200,45,139.8,165.58,81.93
2300,73,145.53,168.45,77.92
2400,151,146.68,169.02,78.5
2500,101,136.36,170.74,88.24
2600,129,121.47,166.73,103.13
2700,109,97.98,156.42,120.32
2800,59,83.08,150.11,127.77
2900,50,64.17,144.39,136.94
3000,41,64.74,153.55,141.52
3100,123,76.78,174.18,143.24
3200,67,95.11,-153.55,142.09
3300,22,105.42,-114.59,135.79
3400,22,105.42,-114.59,135.79
3500,36,103.13,-107.14,127.2
3600,67,99.12,-108.86,122.61
3700,55,99.12,-108.86,122.04
3800,33,98.55,-108.86,120.32
3900,67,98.55,-108.86,120.32
4000,47,97.4,-109.43,119.18
4100,34,96.26,-110.58,118.03
4200,57,96.26,-110.58,118.03
4300,27,97.4,-110.01,118.6
4400,49,97.4,-110.58,119.18
4500,53,97.98,-110.58,119.75
4600,15,97.98,-110.58,120.32
4700,19,97.98,-111.15,120.32
4800,26,97.4,-111.15,120.89
4900,31,97.4,-111.15,121.47
5000,15,97.4,-111.73,121.47
5100,243,97.98,-112.87,123.19
5200,188,97.4,-122.61,125.48
5300,234,96.83,-142.67,127.77
5400,302,93.39,-152.98,128.34
5500,53,85.37,154.7,113.45
5600,42,96.83,154.7,108.86
5700,37,110.01,157.56,103.71
5800,65,124.33,161.0,97.98
5900,53,140.37,165.01,88.81
6000,66,148.97,165.58,81.36
6100,109,157.56,166.16,72.77
6200,80,159.86,166.73,70.47
6300,60,151.26,169.6,75.63
6400,60,151.26,169.6,75.63
6500,24,120.32,167.3,106.0
6600,52,103.71,161.57,119.18
6700,71,84.22,155.84,132.35
6800,170,76.2,156.42,138.08
6900,48,75.63,170.74,143.81
7000,108,75.63,172.46,144.39
7100,60,79.64,-171.31,142.09
7200,96,89.38,-138.66,135.79
7300,59,91.1,-127.2,133.5
7400,91,93.97,-114.02,126.05
7500,15,93.39,-112.3,122.61
7600,105,91.1,-112.87,121.47
7700,24,91.1,-113.45,121.47
7800,72,91.1,-113.45,122.61
7900,32,92.25,-112.87,122.61
8000,41,91.67,-113.45,122.61
8100,67,91.67,-112.87,122.61
8200,26,92.82,-112.87,123.76
8300,130,92.25,-113.45,124.9
8400,103,92.82,-125.48,128.34
8500,153,89.38,-146.68,130.63
8600,163,81.36,-173.03,129.49
8700,107,77.35,161.57,120.32
8800,225,85.37,150.69,112.87
8900,127,93.97,152.41,108.86
9000,80,111.73,159.28,102.56
9100,70,132.93,171.31,88.24
9200,91,144.39,173.61,77.35
9300,68,151.26,171.89,72.77
9400,21,147.82,174.75,76.2
9500,165,136.36,179.34,91.1
9600,76,124.33,-173.61,110.01
9700,103,115.16,-164.44,127.2
9800,109,108.86,-157.56,135.79
9900,191,95.11,-142.09,147.25
10000,40,95.68,-133.5,147.82
10100,85,96.26,-114.59,149.54
10200,79,96.83,-112.3,147.25
10300,75,95.11,-112.87,147.25
10400,18,95.11,-113.45,146.1
10500,70,93.97,-114.59,146.1
10600,100,92.82,-114.59,144.39
10700,174,92.82,-114.59,144.39
10800,27,93.39,-113.45,143.81
10900,62,93.97,-112.87,143.81
11000,118,91.1,-128.92,140.95
11100,479,77.35,-167.3,139.23
11200,181,66.46,166.16,128.92
11300,215,72.19,165.01,123.19
11400,53,91.67,170.17,115.74
11500,75,110.58,177.04,108.86
11600,79,130.63,179.34,91.1
11700,43,145.53,177.62,73.91
11800,68,152.98,172.46,67.61
11900,120,150.69,173.61,69.33
12000,98,138.66,177.62,82.51
12100,330,125.48,178.19,99.12
12200,301,96.83,168.45,123.19
12300,115,73.91,156.42,130.06
12400,76,52.71,153.55,139.8
12500,16,57.3,178.19,143.24
12600,89,69.9,-152.41,142.67
12700,76,76.2,-136.36,141.52
12800,66,87.66,-119.18,137.51
12900,97,87.09,-118.6,134.65
13000,43,85.94,-120.32,134.65
13100,29,84.8,-121.47,133.5
13200,38,83.65,-122.61,131.78
13300,76,82.51,-123.19,130.63
13400,37,81.93,-123.76,128.34
13500,76,81.93,-124.33,127.2
13600,59,82.51,-124.9,126.05
13700,81,81.36,-125.48,125.48
13800,28,81.36,-125.48,124.9
13900,195,81.36,-126.05,124.9
14000,80,80.21,-132.35,124.33
14100,208,79.64,-146.1,124.9
14200,154,69.9,-176.47,126.62
14300,185,64.74,162.15,119.75
14400,217,79.64,155.84,111.73
14500,56,92.25,158.71,108.29
14600,33,118.6,166.16,96.26
14700,114,140.95,167.3,77.92
14800,114,140.95,167.3,77.92
14900,60,149.54,167.3,74.48
15000,115,128.92,171.89,96.26
15100,84,117.46,171.31,108.86
15200,174,97.98,169.02,127.77
15300,78,64.17,156.42,141.52
15400,36,56.72,159.28,144.96
15500,67,66.46,-179.34,146.1
15600,95,88.24,-134.07,144.39
15700,41,96.26,-111.15,143.24
15800,32,97.98,-103.71,140.95
15900,83,92.25,-102.56,139.8
16000,60,89.95,-101.41,138.66
16100,136,85.94,-101.41,136.36
16200,60,84.22,-102.56,134.65
16300,33,83.65,-103.13,134.65
16400,72,84.22,-106.57,133.5
16500,56,84.8,-107.72,133.5
16600,69,82.51,-119.18,132.35
16700,421,79.64,-145.53,127.2
16800,286,60.16,158.71,123.19
16900,85,59.59,149.54,118.03
17000,132,80.79,158.14,114.02
17100,89,105.42,162.72,105.42
17200,15,130.06,165.58,88.81
17300,182,131.21,165.58,88.24
17400,58,150.11,159.28,72.77
17500,144,147.82,159.28,74.48
17600,92,134.65,165.58,82.51
17700,111,106.0,165.01,103.71
17800,21,88.81,163.29,114.59
17900,124,71.62,174.18,128.34
18000,37,72.19,-152.41,133.5
18100,152,78.5,-123.19,136.36
18200,41,82.51,-109.43,136.36
18300,101,81.93,-107.72,132.35
18400,32,82.51,-108.29,130.06
18500,69,81.93,-109.43,129.49
18600,117,82.51,-109.43,128.34
18700,49,82.51,-109.43,127.77
18800,133,81.93,-110.58,128.34
18900,106,82.51,-111.15,128.34
19000,178,76.2,-133.5,126.62
19100,262,68.18,-163.29,123.76
19200,28,73.91,168.45,115.74
19300,125,89.95,167.88,110.01
19400,60,112.87,169.02,96.26
19500,97,133.5,168.45,77.92
19600,93,137.51,167.88,75.06
19700,262,135.79,169.02,75.63
19800,117,112.3,169.6,97.98
19900,230,92.82,166.73,114.02
20000,67,81.93,163.87,121.47
20100,69,57.87,176.47,130.63
20200,459,57.3,-171.31,132.93
20300,215,65.32,-137.51,132.35
20400,90,72.77,-119.18,128.92
20500,138,74.48,-116.88,127.77
20600,47,75.63,-116.31,125.48
20700,30,75.63,-116.88,124.33
20800,36,75.63,-117.46,124.33
20900,52,75.63,-117.46,123.19
21000,83,75.63,-118.03,122.04
21100,144,74.48,-121.47,122.61
21200,395,72.77,-130.06,122.04
21300,262,55.58,177.62,123.19
21400,64,52.71,155.27,117.46
21500,199,69.9,157.56,115.16
21600,116,100.27,168.45,104.28
21700,90,118.6,173.03,89.38
21800,158,134.65,168.45,76.2
21900,95,140.95,162.72,71.62
22000,57,135.79,165.01,75.63
22100,163,122.61,165.58,88.24
22200,80,96.26,162.15,105.42
22300,89,70.47,155.84,111.15
22400,56,68.18,155.84,111.73
22500,312,54.43,-176.47,119.18
22600,126,59.59,-153.55,116.88
22700,30,62.45,-144.39,116.31
22800,98,71.05,-120.89,112.87
22900,78,75.63,-115.74,110.58
23000,56,75.63,-116.31,110.58
23100,145,75.06,-116.88,111.15
23200,92,75.06,-116.88,111.15
23300,81,75.06,-118.03,111.15
23400,100,75.06,-118.03,111.15
23500,158,75.63,-120.32,111.15
23600,74,82.51,-132.93,111.73
23700,57,87.66,-169.6,118.03
23800,72,93.39,166.16,111.73
23900,97,96.26,161.57,108.29
24000,27,130.63,150.11,82.51
24100,217,140.37,148.97,76.78
24200,54,139.23,150.69,76.78
24300,77,127.77,155.27,82.51
24400,48,101.41,163.29,101.41
24500,105,85.94,171.31,116.31
24600,40,79.07,-161.0,123.76
24700,144,77.35,-141.52,126.05
24800,37,77.92,-125.48,126.05
24900,121,77.35,-119.18,121.47
25000,50,76.2,-119.75,119.18
25100,141,76.2,-120.32,118.6
25200,49,77.35,-120.89,118.03
25300,103,77.35,-120.32,117.46
25400,15,77.92,-120.32,116.31
25500,109,77.92,-120.32,116.31
25600,80,77.92,-119.75,115.74
25700,72,77.35,-121.47,116.31
25800,72,68.75,-153.55,118.6
25900,70,63.03,-177.62,120.89
26000,183,60.16,165.58,118.6
26100,298,88.24,148.97,104.28
26200,165,127.77,145.53,83.65
26300,76,147.25,142.09,75.63
26400,101,149.54,140.95,75.63
26500,58,142.67,143.81,76.2
26600,145,125.48,153.55,84.8
26700,40,99.69,178.76,101.41
26800,95,93.39,-167.3,108.29
26900,83,84.8,-128.34,116.31
27000,77,81.36,-120.32,116.31
27100,108,79.07,-117.46,114.59
27200,172,77.35,-114.59,111.73
27300,66,78.5,-115.74,111.15
27400,34,79.07,-115.74,109.43
27500,32,77.92,-116.31,108.29
27600,84,77.35,-116.31,107.14
27700,130,76.2,-116.31,107.72
27800,58,75.63,-118.6,108.29
27900,169,69.33,-139.23,109.43
28000,72,69.9,-177.04,112.3
28100,129,74.48,169.6,107.72
28200,133,106.0,148.4,91.67
28300,184,122.61,144.96,83.65
28400,152,150.11,142.09,71.05
28500,236,153.55,144.39,69.33
28600,151,149.54,144.96,69.9
28700,114,114.02,154.7,90.53
28800,121,78.5,157.56,107.72
28900,139,57.3,166.16,112.87
29000,248,55.58,178.76,116.88
29100,171,64.74,-146.68,114.59
29200,48,67.61,-130.63,111.73
29300,107,69.33,-122.04,108.29
29400,124,69.33,-120.89,106.0
29500,150,70.47,-122.04,104.85
29600,150,70.47,-122.04,104.85
29700,64,72.19,-122.61,104.28
29800,270,72.19,-123.19,105.42
29900,149,72.19,-126.62,104.85
30000,149,72.19,-126.62,104.85
30100,360,76.78,-171.31,111.73
30200,734,91.1,163.87,106.57
30300,403,105.42,143.24,92.25
30400,256,138.08,125.48,73.34
30500,278,139.23,124.9,72.77
30600,396,127.77,124.33,73.91
30700,368,119.18,129.49,76.78
30800,100,91.67,162.15,99.12
30900,246,83.65,-166.16,104.28
31000,111,79.07,-147.25,102.56
31100,106,75.63,-134.07,101.41
31200,149,72.77,-122.04,96.83
31300,62,73.34,-120.32,95.11
31400,71,72.77,-118.6,92.82
31500,23,73.91,-118.6,92.25
31600,43,73.91,-118.6,92.25
31700,60,73.91,-119.18,92.25
31800,49,73.91,-119.18,92.25
31900,183,73.91,-120.32,92.25
32000,89,76.2,-126.05,92.82
32100,204,84.22,-153.55,99.69
32200,172,82.51,179.34,102.56
32300,200,95.11,154.7,88.24
32400,287,123.76,131.78,69.9
32500,543,151.26,118.03,62.45
32600,200,152.41,116.31,61.88
32700,223,130.06,133.5,65.32
32800,215,106.57,157.56,74.48
32900,176,93.39,179.91,81.36
33000,176,82.51,-156.42,88.24
33100,107,76.2,-140.37,92.25
33200,117,73.91,-128.92,92.82
33300,109,72.77,-122.04,91.67
33400,90,73.34,-119.75,91.1
33500,144,73.34,-119.18,91.1
33600,129,73.34,-119.18,90.53
33700,76,74.48,-119.75,89.38
33800,73,74.48,-119.75,89.38
33900,136,74.48,-120.32,89.38
34000,118,75.06,-120.89,88.81
34100,88,75.06,-120.89,88.81
34200,100,75.06,-120.89,88.81
34300,54,76.78,-124.33,89.38
34400,62,79.64,-136.94,93.39
34500,176,81.36,-162.72,100.27
34600,466,89.38,169.6,88.24
34700,233,106.57,143.24,71.05
34800,280,143.81,119.18,57.87
34900,317,163.87,114.59,59.01
35000,244,152.41,114.02,57.87
35100,48,119.75,131.78,60.73
35200,38,96.83,161.57,71.05
35300,152,91.67,173.03,75.06
35400,48,83.65,-158.14,84.8
35500,81,76.78,-129.49,91.1
35600,98,74.48,-120.89,91.1
35700,143,72.19,-118.03,91.1
35800,83,71.62,-118.6,91.1
35900,165,72.77,-119.18,91.1
36000,112,73.34,-119.75,90.53
36100,98,73.91,-119.75,89.38
36200,109,73.91,-119.75,89.38
36300,173,73.91,-120.89,88.81
36400,168,76.78,-128.92,88.81
36500,229,79.07,-132.35,88.24
36600,254,96.26,-168.45,88.24
36700,213,103.71,162.72,83.65
36800,195,119.75,136.94,72.77
36900,159,147.82,117.46,63.03
37000,159,147.82,117.46,63.03
37100,423,159.28,111.15,60.73
37200,343,131.21,127.2,62.45
37300,81,108.86,149.54,70.47
37400,36,94.54,172.46,78.5
37500,89,86.52,-157.56,83.65
37600,36,83.65,-143.24,84.8
37700,36,83.65,-143.24,84.8
37800,83,77.35,-119.75,83.65
37900,146,77.35,-119.18,83.65
38000,119,77.35,-119.18,83.08
38100,113,78.5,-120.32,83.08
38200,58,78.5,-120.89,83.08
38300,94,78.5,-122.04,83.08
38400,216,77.92,-128.92,82.51
38500,119,77.92,-136.94,82.51
38600,86,81.36,-163.87,77.35
38700,112,86.52,-174.18,71.62
38800,15,103.13,153.55,61.31
38900,162,153.55,110.58,55.58
39000,151,177.04,103.71,60.73
39100,117,171.31,106.0,60.73
39200,172,145.53,122.04,60.16
39300,42,113.45,148.97,68.18
39400,213,95.68,166.73,74.48
39500,211,81.93,-170.17,79.07
39600,284,76.2,-140.37,80.21
39700,57,75.63,-127.77,80.79
39800,33,75.06,-121.47,80.79
39900,115,74.48,-118.03,79.07
40000,64,74.48,-118.03,77.92
40100,215,74.48,-118.6,77.92
40200,102,75.63,-119.18,77.92
40300,77,75.63,-119.75,77.92
40400,139,75.06,-126.05,79.07
40500,106,77.35,-147.82,77.35
40600,61,83.08,-161.57,74.48
40700,286,106.57,141.52,56.15
40800,126,139.23,107.72,51.57
40900,126,139.23,107.72,51.57
41000,485,161.0,94.54,54.43
41100,110,127.2,118.03,48.7
41200,216,108.86,138.66,52.14
41300,78,87.66,-178.19,64.74
41400,114,80.79,-153.55,71.05
41500,90,77.35,-139.23,75.06
41600,54,74.48,-128.34,78.5
41700,36,72.77,-121.47,79.07
41800,54,72.19,-120.89,77.92
41900,82,71.05,-119.75,73.91
42000,37,71.62,-120.32,72.19
42100,90,71.62,-120.89,72.19
42200,95,72.77,-122.04,72.19
42300,135,73.34,-123.76,73.91
42400,83,73.91,-127.2,75.63
42500,44,80.21,-147.82,76.78
42600,230,91.67,178.76,77.92
42700,707,104.28,150.69,69.9
42800,325,111.73,139.23,67.04
42900,641,155.84,98.55,56.72
43000,317,166.73,92.25,58.44
43100,161,138.66,106.0,50.42
43200,98,109.43,144.39,56.72
43300,231,96.83,177.62,66.46
43400,87,89.38,-161.57,67.04
43500,158,81.36,-138.66,68.18
43600,58,77.35,-129.49,67.61
43700,150,72.77,-118.6,66.46
43800,153,71.62,-116.31,65.89
43900,75,71.62,-116.31,64.74
44000,89,72.77,-119.18,65.32
44100,126,77.35,-132.35,68.18
44200,217,79.64,-142.67,68.75
44300,91,92.25,-177.62,71.62
44400,317,114.02,135.79,67.04
44500,86,128.92,118.6,63.03
44600,282,172.46,95.68,64.74
44700,74,168.45,98.55,61.88
44800,328,144.39,112.87,57.3
44900,70,116.88,136.36,61.31
45000,182,100.84,156.99,69.9
45100,55,91.67,177.04,75.06
45200,214,89.38,-168.45,78.5
45300,52,83.08,-135.22,76.78
45400,198,79.07,-120.89,73.91
45500,121,76.2,-114.02,72.77
45600,26,73.34,-111.15,71.05
45700,122,72.77,-110.58,69.9
45800,191,72.77,-111.15,68.75
45900,140,72.19,-111.73,68.18
46000,30,72.19,-111.73,67.61
46100,56,72.19,-112.3,67.61
46200,229,71.62,-112.87,67.61
46300,145,72.77,-120.89,67.04
46400,142,81.36,-143.81,68.18
46500,225,93.39,178.76,69.9
46600,174,112.87,136.36,61.88
46700,394,153.55,91.67,55.0
46800,152,165.01,81.36,60.73
46900,47,152.98,89.38,55.0
47000,133,115.16,125.48,52.71
47100,45,90.53,174.18,66.46
47200,44,86.52,-169.02,68.18
47300,118,79.07,-132.93,66.46
47400,59,73.34,-114.59,63.6
47500,121,70.47,-110.58,63.03
47600,39,68.18,-107.72,61.88
47700,69,68.75,-108.29,60.16
47800,75,68.75,-108.86,59.59
47900,81,68.75,-109.43,59.59
48000,96,68.75,-108.29,59.01
48100,27,67.61,-107.72,59.01
48200,40,66.46,-106.0,57.87
48300,118,66.46,-105.42,57.3
48400,128,65.89,-105.42,56.72
48500,69,66.46,-105.42,55.58
48600,55,66.46,-106.0,55.58
48700,68,65.32,-106.0,55.58
48800,80,64.74,-106.0,55.58
48900,54,63.6,-106.0,55.0
