Time,EMG_value,Yaw,Roll,Pitch
0,102,91.67,-151.26,93.97
100,75,91.1,-151.26,94.54
200,108,92.25,-151.26,95.11
300,110,91.67,-151.26,96.26
400,127,91.67,-151.26,96.26
500,76,91.1,-151.26,96.83
600,118,91.1,-151.26,96.83
700,59,91.1,-152.41,97.4
800,136,90.53,-152.98,97.98
900,39,90.53,-152.98,97.98
1000,39,90.53,-152.98,97.98
1100,68,90.53,-152.41,97.98
1200,171,90.53,-151.26,97.98
1300,63,89.95,-150.69,99.12
1400,54,89.38,-150.69,100.84
1500,122,89.95,-150.11,101.99
1600,42,88.24,-150.69,104.28
1700,136,87.09,-151.83,104.85
1800,328,59.01,174.18,104.85
1900,61,30.94,147.25,89.38
2000,148,12.61,143.81,76.78
2100,156,-2.29,152.98,68.75
2200,336,-3.44,153.55,66.46
2300,172,5.73,148.97,73.91
2400,50,28.65,151.26,96.83
2500,84,55.0,174.18,114.02
2600,227,75.63,-162.72,118.6
2700,48,88.81,-147.25,118.6
2800,135,93.39,-142.09,118.03
2900,110,96.83,-139.23,117.46
3000,82,96.83,-138.66,118.03
3100,62,97.4,-138.08,118.6
3200,75,97.4,-138.08,119.18
3300,88,96.83,-138.08,120.32
3400,89,96.83,-139.23,120.32
3500,45,88.24,-148.97,120.89
3600,57,80.79,-158.14,119.75
3700,73,49.85,162.15,106.0
3800,46,32.09,146.68,91.67
3900,173,13.18,142.09,69.9
4000,144,6.3,144.96,65.89
4100,202,1.15,148.97,61.88
4200,91,6.88,143.24,67.04
4300,78,16.62,138.66,79.07
4400,310,40.11,149.54,108.29
4500,111,61.31,172.46,120.89
4600,40,77.35,-167.3,124.9
4700,90,97.4,-143.24,121.47
4800,140,104.28,-136.36,112.87
4900,48,104.85,-137.51,111.73
5000,172,103.71,-138.66,111.15
5100,49,102.56,-139.8,111.73
5200,49,102.56,-139.8,111.73
5300,118,101.41,-140.37,113.45
5400,100,91.67,-156.42,116.31
5500,81,69.9,170.17,111.15
5600,142,48.7,142.09,97.98
5700,80,37.82,132.35,88.81
5800,156,16.62,130.06,70.47
5900,114,8.02,136.94,66.46
6000,41,8.59,138.08,67.04
6100,46,18.33,133.5,77.35
6200,122,26.36,132.93,88.81
6300,41,66.46,174.75,120.89
6400,168,85.37,-159.86,122.04
6500,42,93.39,-150.11,119.18
6600,102,96.26,-146.1,119.18
6700,92,99.69,-142.09,119.18
6800,168,98.55,-142.09,119.75
6900,44,98.55,-142.09,119.75
7000,35,97.98,-142.67,120.32
7100,78,97.98,-142.09,120.32
7200,128,96.83,-143.81,121.47
7300,120,91.1,-152.41,122.04
7400,81,63.03,167.3,115.16
7500,37,42.4,140.95,100.84
7600,81,26.36,128.34,79.07
7700,73,17.19,128.92,69.9
7800,59,12.61,134.07,68.18
7900,207,12.61,134.65,68.75
8000,193,19.48,132.35,72.77
8100,156,24.06,131.21,79.07
8200,253,40.11,138.66,103.13
8300,121,71.05,173.61,123.19
8400,176,89.38,-163.87,122.04
8500,34,103.13,-146.1,114.59
8600,133,104.85,-143.24,111.73
8700,123,107.14,-140.95,110.58
8800,106,105.42,-141.52,111.73
8900,93,104.85,-141.52,112.3
9000,96,103.71,-143.24,115.16
9100,161,86.52,-167.3,119.18
9200,133,69.9,170.74,117.46
9300,37,43.54,140.37,103.71
9400,70,25.21,129.49,83.65
9500,69,22.35,129.49,79.64
9600,230,12.61,137.51,68.18
9700,148,14.9,135.22,71.05
9800,223,27.5,134.07,90.53
9900,313,45.84,146.68,111.15
10000,87,59.01,160.43,119.75
10100,95,91.1,-161.57,125.48
10200,141,100.27,-153.55,121.47
10300,103,104.85,-150.11,118.6
10400,103,104.85,-150.11,118.6
10500,135,105.42,-148.97,117.46
10600,123,105.42,-149.54,117.46
10700,217,103.13,-152.41,119.18
10800,105,90.53,-170.17,120.89
10900,218,71.05,161.57,116.88
11000,155,44.12,131.78,106.57
11100,218,22.92,120.32,89.38
11200,308,14.32,119.75,81.36
11300,231,10.89,123.19,76.78
11400,82,14.32,122.04,80.21
11500,172,28.07,123.19,95.68
11600,51,49.85,142.09,115.16
11700,111,77.92,177.62,123.76
11800,111,77.92,177.62,123.76
11900,132,102.56,-150.69,114.02
12000,522,105.42,-145.53,112.3
12100,84,105.42,-144.39,113.45
12200,126,104.85,-144.39,114.02
12300,266,103.71,-146.1,115.74
12400,138,97.4,-158.71,120.32
12500,134,69.33,156.42,120.89
12600,396,41.25,122.04,108.86
12700,280,22.92,107.72,92.82
12800,300,8.02,101.99,75.63
12900,265,11.46,102.56,77.35
13000,155,20.05,103.13,87.09
13100,127,32.09,110.58,103.13
13200,159,60.73,146.1,121.47
13300,90,79.64,170.17,124.33
13400,166,96.26,-166.73,120.89
13500,269,103.13,-158.14,117.46
13600,88,104.85,-152.98,115.74
13700,94,106.0,-148.97,114.59
13800,96,106.0,-148.4,115.74
13900,100,104.85,-148.97,115.16
14000,86,104.28,-149.54,115.74
14100,86,104.28,-149.54,115.74
14200,163,101.99,-150.69,117.46
14300,71,96.83,-157.56,119.75
14400,52,79.64,171.89,120.89
14500,191,67.04,155.84,119.18
14600,66,40.11,124.33,108.29
14700,114,15.47,104.28,86.52
14800,33,7.45,103.13,76.2
14900,268,7.45,104.85,76.78
15000,71,25.21,108.86,96.26
15100,29,50.42,132.35,118.03
15200,65,65.89,152.41,124.33
15300,133,95.68,-170.17,120.89
15400,86,102.56,-164.44,116.31
15500,114,106.57,-159.28,113.45
15600,113,105.42,-156.99,114.02
15700,61,105.42,-156.99,114.02
15800,128,98.55,-159.86,120.32
15900,164,81.36,175.9,124.9
16000,177,59.01,146.68,122.04
16100,70,52.71,138.08,120.32
16200,70,52.71,138.08,120.32
16300,173,12.61,102.56,83.65
16400,129,10.89,103.13,77.92
16500,61,12.61,103.13,80.21
16600,188,21.77,106.0,95.11
16700,285,42.97,126.62,118.6
16800,115,66.46,154.7,126.62
16900,271,87.66,-178.76,124.33
17000,203,94.54,-170.17,121.47
17100,87,104.85,-157.56,115.16
17200,170,106.57,-154.13,114.59
17300,115,104.85,-154.13,115.16
17400,111,104.28,-154.7,116.31
17500,244,103.13,-154.7,116.31
17600,114,101.99,-155.27,118.03
17700,119,101.41,-154.7,118.6
17800,204,100.27,-155.27,119.18
17900,104,99.12,-155.84,120.32
18000,117,92.82,-161.57,124.33
18100,73,64.74,159.86,124.9
18200,108,41.25,130.63,115.16
18300,98,17.19,110.58,96.26
18400,141,8.59,105.42,83.65
18500,230,6.3,104.85,78.5
18600,173,16.62,106.0,90.53
18700,79,25.78,110.58,101.41
18800,176,48.7,135.22,120.32
18900,270,65.32,155.84,126.62
19000,54,80.21,178.76,127.2
19100,162,97.4,-159.28,123.19
19200,162,101.99,-154.7,120.32
19300,80,102.56,-152.98,119.18
19400,126,103.13,-151.83,119.18
19500,89,101.99,-151.83,119.75
19600,113,101.41,-152.41,120.32
19700,231,100.27,-152.98,122.04
19800,63,91.67,-163.29,125.48
19900,249,64.17,154.7,123.19
20000,36,46.41,131.21,114.02
20100,154,25.78,115.16,96.83
20200,98,14.9,111.73,83.08
20300,223,13.75,111.15,79.07
20400,257,22.92,114.59,91.1
20500,64,30.94,120.32,101.41
20600,294,64.74,158.14,124.33
20700,102,88.24,-175.33,124.9
20800,98,95.11,-169.6,123.19
20900,254,100.27,-161.57,122.61
21000,140,100.27,-159.86,123.19
21100,123,99.69,-157.56,124.9
21200,117,97.98,-156.99,126.05
21300,95,97.98,-155.84,126.62
21400,74,96.26,-155.27,127.77
21500,142,95.68,-155.27,128.34
21600,329,92.82,-157.56,130.63
21700,329,92.82,-157.56,130.63
21800,306,42.4,130.63,119.75
21900,149,20.63,112.3,96.26
22000,54,14.9,113.45,87.09
22100,208,10.89,116.31,82.51
22200,139,14.9,115.16,87.66
22300,208,21.2,116.88,98.55
22400,335,33.8,125.48,115.16
22500,353,64.74,159.28,130.63
22600,77,92.25,-166.16,130.06
22700,144,101.41,-152.98,126.62
22800,72,105.42,-146.1,123.76
22900,24,104.85,-144.39,123.76
23000,122,103.13,-144.39,125.48
23100,33,101.99,-144.39,127.2
23200,140,101.41,-144.96,128.34
23300,89,100.84,-145.53,128.92
23400,193,101.99,-144.96,129.49
23500,89,100.84,-145.53,128.92
23600,79,100.27,-146.68,130.06
23700,180,76.2,175.33,133.5
23800,132,56.72,148.97,129.49
23900,412,28.65,115.74,107.72
24000,163,13.18,108.86,85.37
24100,277,10.89,111.15,81.93
24200,37,16.62,112.3,92.25
24300,35,29.79,119.75,113.45
24400,154,40.11,131.21,124.9
24500,67,71.62,171.31,135.79
24600,153,91.67,-163.87,131.78
24700,114,98.55,-155.27,127.77
24800,41,101.99,-150.69,125.48
24900,142,101.41,-151.26,124.9
25000,204,100.84,-151.26,126.05
25100,79,100.27,-151.26,126.62
25200,225,97.98,-152.41,128.34
25300,101,99.12,-152.41,128.34
25400,198,98.55,-152.98,129.49
25500,112,90.53,-163.29,134.07
25600,30,80.79,-175.33,136.36
25700,157,47.56,139.8,130.06
25800,265,26.36,114.02,115.74
25900,337,10.89,99.69,98.55
26000,235,2.86,99.12,79.07
26100,81,2.86,99.69,79.64
26200,186,8.02,99.12,90.53
26300,84,16.62,101.41,106.0
26400,54,37.24,122.61,131.21
26500,179,59.01,148.97,139.23
26600,90,93.39,-166.73,135.22
26700,187,104.28,-150.69,126.62
26800,253,105.42,-147.82,125.48
26900,106,106.0,-142.09,124.9
27000,65,104.85,-142.67,126.62
27100,86,103.13,-143.24,127.2
27200,73,102.56,-144.39,128.34
27300,92,101.41,-144.39,130.06
27400,102,101.41,-144.96,130.06
27500,53,101.41,-146.1,130.63
27600,70,101.41,-146.1,130.63
27700,163,100.84,-146.1,131.21
27800,73,96.26,-150.11,134.07
27900,88,70.47,171.89,139.23
28000,147,35.52,123.19,126.05
28100,241,21.77,105.42,108.29
28200,210,13.75,98.55,86.52
28300,267,12.03,97.4,81.93
28400,172,14.9,99.12,91.1
28500,273,25.21,104.85,111.15
28600,29,33.23,114.02,122.04
28700,81,61.31,148.4,136.94
28800,125,85.94,-176.47,135.79
28900,190,94.54,-165.01,132.93
29000,129,100.84,-150.11,127.77
29100,99,103.13,-146.1,126.62
29200,136,102.56,-146.68,127.77
29300,157,102.56,-146.68,127.77
29400,144,100.84,-148.4,130.06
29500,33,100.27,-148.4,130.63
29600,126,97.4,-151.26,131.78
29700,8,88.24,-167.3,134.65
29800,134,66.46,158.71,134.07
29900,227,39.53,125.48,121.47
30000,262,20.05,106.57,101.99
30100,54,8.02,103.71,83.65
30200,47,2.29,105.42,76.2
30300,138,12.03,106.57,90.53
30400,210,18.91,108.86,102.56
30500,34,46.41,134.65,126.05
30600,212,72.77,169.6,132.93
30700,120,86.52,-176.47,132.35
30800,82,96.83,-162.72,128.92
30900,115,98.55,-158.71,127.77
31000,200,98.55,-158.71,127.77
31100,142,96.83,-159.86,128.34
31200,194,95.68,-160.43,128.34
31300,62,93.97,-161.0,128.92
31400,187,93.39,-161.0,129.49
31500,41,91.67,-162.15,131.21
31600,199,89.38,-163.87,133.5
31700,129,74.48,177.04,136.94
31800,45,60.16,156.99,136.36
31900,104,26.36,113.45,116.31
32000,59,15.47,103.13,100.27
32100,43,8.59,101.99,85.94
32200,191,12.61,101.99,93.39
32300,207,17.76,104.28,101.99
32400,39,38.39,122.61,122.61
32500,337,60.16,150.69,132.35
32600,156,80.21,176.47,134.65
32700,193,91.67,-167.88,132.93
32800,198,92.25,-165.58,134.07
32900,169,91.1,-164.44,134.07
33000,198,91.67,-163.87,134.07
33100,81,90.53,-164.44,134.65
33200,134,89.95,-165.01,134.07
33300,269,85.94,-167.3,135.79
33400,108,69.9,172.46,138.08
33500,108,47.56,143.81,134.65
33600,41,18.33,107.72,111.73
33700,73,12.03,104.85,101.41
33800,288,4.58,104.85,87.66
33900,168,10.31,104.85,96.26
34000,115,20.63,108.86,110.58
34100,18,42.97,131.21,130.63
34200,25,67.61,162.15,135.79
34300,119,84.8,-177.04,135.22
34400,203,93.39,-166.16,132.35
34500,182,101.41,-156.42,128.34
34600,189,100.27,-156.99,128.34
34700,135,100.27,-156.99,128.34
34800,119,97.98,-158.71,128.92
34900,175,97.98,-159.28,128.92
35000,152,97.4,-159.28,129.49
35100,216,93.97,-161.0,132.35
35200,122,88.81,-164.44,135.79
35300,221,62.45,161.0,138.66
35400,72,22.92,111.73,120.32
35500,106,9.74,104.28,95.68
35600,237,6.88,104.28,88.24
35700,149,7.45,104.85,89.38
35800,217,17.19,106.57,107.14
35900,154,33.8,120.89,124.9
36000,211,61.88,153.55,136.94
36100,17,83.08,179.91,135.79
36200,154,97.98,-161.57,131.21
36300,144,101.99,-156.99,128.92
36400,181,100.84,-158.14,128.92
36500,94,99.12,-158.71,130.63
36600,227,97.98,-159.86,130.63
36700,15,97.4,-161.0,131.21
36800,139,95.11,-162.15,131.78
36900,54,95.11,-162.15,131.78
37000,239,92.82,-163.29,132.35
37100,105,85.37,-170.17,136.36
37200,223,43.54,136.36,134.07
37300,51,26.36,114.59,123.19
37400,55,8.02,96.83,95.68
37500,234,1.15,97.4,83.65
37600,304,1.15,98.55,84.22
37700,148,10.89,99.69,98.55
37800,76,29.79,112.3,119.18
37900,181,59.01,145.53,132.93
38000,328,79.64,172.46,134.07
38100,42,92.82,-170.17,130.63
38200,116,97.98,-162.72,128.92
38300,187,99.12,-161.0,127.77
38400,55,97.98,-161.57,128.34
