Time,EMG_value,Yaw,Roll,Pitch
0,40,96.83,-140.37,101.99
100,76,96.26,-140.95,102.56
200,106,96.26,-140.95,103.71
300,78,96.26,-140.95,103.71
400,25,96.26,-140.95,104.85
500,21,96.26,-140.95,104.85
600,98,96.26,-140.95,104.85
700,50,96.26,-140.95,105.42
800,65,96.26,-140.95,105.42
900,23,96.26,-140.95,105.42
1000,138,95.68,-140.95,106.0
1100,154,96.26,-140.95,106.57
1200,126,96.83,-140.95,106.57
1300,283,97.98,-140.37,105.42
1400,239,99.12,-140.37,106.0
1500,147,100.27,-144.96,108.29
1600,1593,95.11,178.19,113.45
1700,8,84.22,127.77,109.43
1800,18,83.08,115.16,106.57
1900,18,83.08,115.16,106.57
2000,896,90.53,162.15,112.3
2100,860,100.84,-143.24,111.73
2200,590,100.27,-128.34,108.86
2300,352,99.12,-124.9,107.72
2400,44,97.98,-124.9,107.14
2500,51,97.98,-125.48,107.14
2600,33,97.4,-125.48,107.14
2700,251,97.4,-126.05,107.14
2800,308,96.83,-126.62,107.72
2900,218,96.83,-126.62,108.86
3000,338,97.4,-126.62,108.86
3100,338,97.4,-126.62,108.86
3200,102,96.83,-127.2,110.01
3300,104,96.83,-127.2,110.01
3400,63,96.83,-127.77,110.58
3500,61,97.4,-128.34,111.15
3600,486,97.4,-128.34,111.15
3700,772,99.69,-143.81,112.3
3800,995,88.81,166.16,115.16
3900,879,83.08,130.63,112.87
4000,241,83.08,128.92,111.73
4100,364,83.08,134.65,112.3
4200,334,94.54,-160.43,114.02
4300,371,96.83,-143.81,113.45
4400,238,97.4,-120.32,112.87
4500,166,97.4,-116.31,111.15
4600,139,95.68,-116.88,111.15
4700,139,95.68,-116.88,111.15
4800,244,95.11,-118.6,111.15
4900,139,94.54,-119.75,111.73
5000,33,95.68,-119.75,112.3
5100,58,95.68,-120.32,112.3
5200,165,95.68,-120.89,112.3
5300,20,96.26,-120.89,113.45
5400,68,96.26,-120.89,113.45
5500,38,96.83,-120.89,113.45
5600,118,96.83,-120.89,113.45
5700,80,96.83,-120.89,114.59
5800,25,97.4,-120.89,114.59
5900,128,97.4,-120.89,115.74
6000,78,97.4,-124.33,116.31
6100,523,96.83,-144.39,116.88
6200,117,89.38,178.76,119.75
6300,497,78.5,131.78,116.88
6400,251,79.07,139.23,118.03
6500,169,88.81,-171.89,119.18
6600,270,94.54,-144.39,115.74
6700,247,96.26,-118.03,115.16
6800,114,96.26,-114.02,115.74
6900,148,96.26,-110.01,113.45
7000,22,95.11,-110.58,112.87
7100,56,95.11,-110.58,112.87
7200,103,95.11,-111.15,114.02
7300,56,95.68,-111.15,114.02
7400,97,95.68,-111.15,115.16
7500,37,95.68,-111.15,115.16
7600,184,96.83,-110.58,116.31
7700,78,96.26,-111.15,116.31
7800,55,96.26,-111.15,116.88
7900,51,96.26,-111.15,116.88
8000,103,96.26,-111.73,117.46
8100,61,96.26,-111.73,117.46
8200,63,97.4,-111.15,117.46
8300,65,96.83,-112.3,118.6
8400,195,97.4,-117.46,118.03
8500,117,93.97,-140.95,120.32
8600,393,79.07,151.26,123.19
8700,91,77.35,142.09,122.04
8800,114,79.07,149.54,124.33
8900,189,84.8,-178.76,124.33
9000,143,92.25,-146.1,121.47
9100,246,92.82,-134.07,119.75
9200,33,93.39,-116.31,120.32
9300,55,93.39,-108.86,119.18
9400,111,92.25,-109.43,119.18
9500,108,92.25,-110.01,119.18
9600,168,93.39,-110.01,119.75
9700,69,93.97,-110.01,120.89
9800,89,93.97,-110.58,121.47
9900,153,94.54,-110.58,123.19
10000,131,95.68,-110.58,123.19
10100,131,95.68,-110.58,123.19
10200,25,95.68,-110.58,123.19
10300,122,95.11,-110.58,124.33
10400,135,96.26,-110.58,124.33
10500,137,96.26,-111.73,124.9
10600,259,96.83,-120.32,126.05
10700,234,91.1,-152.98,129.49
10800,513,81.36,155.27,129.49
10900,187,79.64,148.97,130.63
11000,302,80.79,158.14,131.78
11100,211,88.24,-165.58,130.63
11200,205,92.25,-142.67,128.34
11300,127,93.39,-123.19,127.2
11400,153,92.82,-119.75,126.62
11500,108,93.97,-111.15,127.2
11600,182,93.97,-111.15,127.2
11700,98,94.54,-111.15,127.2
11800,31,94.54,-110.58,128.34
11900,111,94.54,-110.58,128.34
12000,24,94.54,-111.73,128.34
12100,24,94.54,-111.73,128.34
12200,85,95.11,-111.73,128.92
12300,84,95.11,-111.73,128.92
12400,73,95.11,-111.73,129.49
12500,106,95.11,-112.3,129.49
12600,18,95.68,-111.73,129.49
12700,65,95.68,-112.87,131.21
12800,107,96.26,-114.02,131.21
12900,100,96.26,-115.16,131.78
13000,327,95.68,-124.33,132.93
13100,192,88.24,-161.0,138.08
13200,354,76.78,150.11,136.94
13300,199,77.35,147.82,136.94
13400,311,81.36,165.58,138.66
13500,56,88.24,-167.3,136.36
13600,184,92.82,-137.51,133.5
13700,78,92.82,-128.92,133.5
13800,92,92.82,-119.18,131.78
13900,207,93.39,-117.46,131.78
14000,54,93.39,-118.03,131.78
14100,51,92.82,-118.6,132.93
14200,123,93.97,-119.18,133.5
14300,43,93.39,-119.18,134.07
14400,11,93.39,-119.75,134.07
14500,62,92.82,-120.32,134.07
14600,47,92.82,-120.89,134.07
14700,70,93.39,-120.32,135.22
14800,52,93.39,-120.32,135.22
14900,118,93.39,-120.32,135.22
15000,80,92.82,-121.47,136.36
15100,68,93.97,-120.89,136.36
15200,122,93.97,-121.47,137.51
15300,168,93.39,-122.04,137.51
15400,110,92.25,-134.65,138.08
15500,601,76.78,162.15,140.95
15600,69,69.9,134.65,140.37
15700,79,71.62,138.66,142.09
15800,297,75.63,162.72,144.39
15900,58,88.81,-159.28,143.24
16000,32,92.82,-136.36,141.52
16100,182,93.39,-111.15,139.23
16200,121,94.54,-105.42,137.51
16300,137,93.39,-107.14,137.51
16400,44,93.39,-107.72,137.51
16500,19,92.82,-108.86,138.08
16600,92,92.82,-109.43,138.08
16700,69,92.25,-110.58,138.08
16800,154,92.82,-111.15,138.66
16900,42,92.82,-111.15,138.66
17000,59,93.39,-111.15,139.23
17100,134,93.39,-111.73,139.8
17200,139,92.82,-112.3,139.8
17300,62,93.39,-112.3,140.95
17400,90,93.39,-112.87,140.95
17500,48,93.39,-112.87,140.95
17600,113,93.97,-112.87,142.09
17700,7,93.97,-113.45,142.09
17800,54,93.97,-115.16,143.24
17900,148,90.53,-145.53,146.1
18000,130,64.17,127.2,146.68
18100,79,61.31,116.88,145.53
18200,71,60.16,117.46,146.1
18300,295,72.77,166.16,151.26
18400,68,91.1,-138.66,147.82
18500,20,91.1,-126.62,146.1
18600,49,91.67,-120.89,144.39
18700,189,91.67,-119.75,144.39
18800,93,91.1,-120.32,143.81
18900,159,90.53,-122.04,143.81
19000,72,88.81,-123.76,144.96
19100,76,88.81,-124.33,144.96
19200,108,88.24,-124.9,146.1
19300,41,88.24,-124.9,146.1
19400,31,89.38,-124.33,146.1
19500,50,87.66,-125.48,146.68
19600,132,87.09,-125.48,147.25
19700,47,88.24,-124.9,147.82
19800,98,88.24,-124.9,147.82
19900,98,88.24,-124.9,147.82
20000,101,87.09,-126.05,148.97
20100,103,88.24,-138.66,150.69
20200,133,71.05,167.3,156.99
20300,265,52.71,108.86,151.26
20400,69,51.57,109.43,151.26
20500,313,66.46,162.15,159.28
20600,35,87.09,-154.7,156.99
20700,74,89.38,-129.49,153.55
20800,50,89.95,-119.75,152.98
20900,99,90.53,-115.16,152.41
21000,36,89.95,-115.16,152.41
21100,118,89.95,-115.16,152.41
21200,43,89.95,-114.59,153.55
21300,43,89.95,-114.59,153.55
21400,107,89.38,-113.45,153.55
21500,136,89.38,-113.45,153.55
21600,31,88.81,-114.02,154.7
21700,160,89.38,-113.45,154.7
21800,30,89.38,-113.45,154.7
21900,84,89.38,-113.45,154.7
22000,163,90.53,-112.87,155.84
22100,97,89.38,-114.59,156.42
22200,134,90.53,-124.9,156.99
22300,225,76.78,-164.44,162.72
22400,362,51.57,144.39,162.15
22500,181,41.83,101.41,154.7
22600,170,40.68,104.28,155.27
22700,125,60.16,162.72,162.72
22800,148,81.36,-148.4,162.15
22900,81,86.52,-131.21,159.86
23000,78,86.52,-118.03,157.56
23100,59,85.94,-117.46,156.99
23200,97,85.37,-118.6,157.56
23300,144,84.8,-119.18,156.99
23400,53,83.65,-120.32,158.14
23500,75,85.37,-119.75,158.71
23600,93,84.8,-119.75,159.86
23700,56,84.22,-120.32,161.57
23800,27,84.22,-120.32,161.57
23900,65,84.22,-120.32,161.57
24000,43,83.65,-120.89,162.15
24100,99,85.37,-119.75,163.29
24200,34,85.37,-119.75,163.29
24300,84,87.09,-119.18,163.29
24400,189,87.66,-132.93,163.87
24500,324,71.62,-170.74,167.3
24600,158,40.11,106.57,162.72
24700,103,37.24,96.26,161.0
24800,83,34.38,115.16,166.73
24900,36,65.32,172.46,170.74
25000,70,89.95,-137.51,166.73
25100,118,87.09,-130.63,165.01
25200,67,87.66,-119.75,162.15
25300,152,84.8,-116.88,161.0
25400,124,82.51,-119.75,161.0
25500,55,83.08,-119.75,162.15
25600,53,84.8,-119.18,162.72
25700,70,84.22,-119.75,163.87
25800,45,84.22,-119.75,163.87
25900,82,85.37,-119.18,163.87
26000,45,83.65,-121.47,164.44
26100,51,82.51,-123.19,165.01
26200,29,82.51,-123.19,165.01
26300,94,82.51,-122.61,165.01
26400,96,84.22,-121.47,166.73
26500,121,83.65,-123.19,168.45
26600,55,83.65,-140.37,170.74
26700,55,83.65,-140.37,170.74
26800,411,29.22,84.8,164.44
26900,133,29.22,82.51,163.29
27000,169,23.49,92.25,166.73
27100,332,63.6,178.19,173.61
27200,63,83.08,-147.25,172.46
27300,70,84.8,-122.61,171.31
27400,169,88.24,-115.74,170.74
27500,142,82.51,-120.89,170.74
27600,128,80.21,-123.76,170.17
27700,75,78.5,-126.05,170.17
27800,80,79.07,-125.48,169.6
27900,163,79.07,-126.05,169.02
28000,50,81.36,-124.33,168.45
28100,61,80.79,-125.48,167.88
28200,62,79.64,-125.48,166.73
28300,36,79.64,-126.05,166.73
28400,80,79.64,-126.05,166.73
28500,12,79.64,-126.62,165.58
28600,199,80.21,-126.05,165.01
28700,124,80.79,-126.05,163.87
28800,116,79.64,-135.22,163.87
28900,235,73.91,-158.71,166.16
29000,288,47.56,153.55,167.3
29100,391,34.38,110.01,161.57
29200,97,31.51,86.52,154.13
29300,53,30.94,95.11,156.99
29400,51,34.38,123.76,163.87
29500,188,70.47,-166.16,167.88
29600,116,85.94,-129.49,165.01
29700,155,85.94,-114.02,163.29
29800,85,83.08,-110.58,162.72
29900,144,81.93,-110.01,162.72
30000,113,82.51,-110.58,165.01
30100,63,82.51,-110.58,165.58
30200,85,84.8,-108.29,166.73
30300,66,83.65,-109.43,167.3
30400,82,85.94,-108.29,166.73
30500,130,84.8,-110.01,166.73
30600,237,86.52,-110.01,166.16
30700,136,88.24,-109.43,166.16
30800,347,87.09,-110.01,166.16
30900,97,84.8,-142.09,168.45
31000,540,40.68,132.93,169.6
31100,245,26.36,90.53,165.01
31200,169,25.21,92.25,165.01
31300,318,43.54,143.24,170.74
31400,212,79.07,-151.26,169.6
31500,65,82.51,-129.49,167.3
31600,65,81.36,-120.89,166.16
31700,206,80.21,-118.6,164.44
31800,142,80.79,-116.31,163.87
31900,128,80.21,-117.46,162.72
32000,53,80.79,-116.88,162.15
32100,184,79.64,-118.6,161.0
32200,43,76.78,-121.47,160.43
32300,128,77.35,-120.89,159.86
32400,50,78.5,-119.75,158.14
32500,131,79.07,-119.18,158.71
32600,111,78.5,-120.32,158.14
32700,66,77.92,-120.89,158.14
32800,78,77.92,-130.63,158.14
32900,78,77.92,-130.63,158.14
33000,957,71.62,-169.02,161.57
33100,390,43.54,99.69,156.99
33200,173,42.4,96.83,157.56
33300,409,44.69,112.87,160.43
33400,405,63.6,167.88,162.72
33500,279,78.5,-159.28,159.86
33600,161,82.51,-143.24,156.99
33700,124,81.93,-124.9,154.13
33800,183,79.64,-124.33,152.98
33900,99,79.07,-122.61,153.55
34000,164,78.5,-122.04,152.98
34100,130,76.78,-123.19,152.98
34200,177,76.78,-123.76,152.98
34300,58,76.2,-124.33,153.55
34400,71,76.78,-123.19,152.98
34500,29,76.78,-123.19,152.98
34600,80,75.06,-124.9,152.41
34700,32,76.2,-123.19,151.26
34800,190,76.2,-123.19,151.26
34900,89,76.78,-123.19,150.69
35000,81,76.2,-123.76,150.69
35100,98,75.06,-129.49,150.11
35200,182,76.2,-147.82,148.4
35300,440,64.74,173.03,152.41
35400,466,48.13,118.6,150.11
35500,73,46.41,113.45,148.4
35600,77,46.98,118.03,149.54
35700,224,63.03,169.6,152.98
35800,45,78.5,-142.09,148.4
35900,118,80.21,-126.05,147.82
36000,111,80.21,-122.61,147.25
36100,88,79.07,-115.16,146.68
36200,54,78.5,-114.59,146.1
36300,80,76.78,-115.74,146.1
36400,29,76.78,-116.31,145.53
36500,46,76.78,-116.31,145.53
36600,93,76.78,-116.31,145.53
36700,54,76.78,-116.31,144.96
36800,74,76.78,-118.6,144.96
36900,75,75.06,-136.36,143.24
37000,242,66.46,-172.46,145.53
37100,467,55.58,138.66,142.67
37200,140,52.71,125.48,142.09
37300,200,53.86,130.06,143.81
37400,236,57.3,149.54,145.53
37500,123,65.32,-177.62,146.1
37600,119,76.78,-136.36,142.67
37700,223,76.78,-120.89,142.09
37800,175,76.78,-114.59,138.66
37900,197,75.63,-115.16,138.08
38000,74,75.06,-116.31,137.51
38100,69,75.06,-116.88,136.94
38200,51,76.2,-117.46,136.94
38300,110,76.2,-117.46,136.94
38400,70,76.2,-117.46,136.36
38500,45,76.2,-117.46,136.36
38600,71,76.2,-117.46,136.36
38700,183,76.78,-123.19,136.36
38800,358,75.06,-152.41,137.51
38900,892,67.61,161.0,139.8
39000,431,61.88,135.22,140.37
39100,260,59.01,130.63,140.37
39200,260,59.01,130.63,140.37
39300,103,64.17,170.17,142.09
39400,36,70.47,-166.16,141.52
39500,67,76.2,-130.63,136.36
39600,129,77.35,-119.18,134.07
39700,114,76.2,-114.59,132.93
39800,93,75.63,-115.74,132.93
39900,36,76.2,-115.74,132.35
40000,55,76.2,-115.74,132.35
40100,90,76.2,-115.74,132.35
40200,151,76.2,-115.74,131.21
40300,63,76.2,-119.18,130.63
40400,171,75.63,-126.62,131.78
40500,27,72.77,-152.98,135.22
40600,315,63.6,163.29,136.94
40700,315,63.6,163.29,136.94
40800,174,59.59,136.94,135.22
40900,966,60.16,146.1,135.79
41000,71,69.33,-171.31,138.08
41100,236,75.06,-150.11,135.79
41200,490,78.5,-123.76,133.5
41300,539,77.92,-117.46,132.93
41400,271,77.92,-114.59,131.78
41500,40,77.92,-114.02,131.21
41600,99,77.92,-114.59,131.21
41700,139,77.92,-114.59,130.63
41800,38,77.92,-114.59,130.63
41900,85,77.35,-114.59,129.49
42000,36,77.35,-115.16,128.34
42100,85,76.78,-119.75,127.77
42200,144,76.2,-128.92,127.77
42300,101,65.32,171.89,131.78
42400,132,59.59,141.52,128.34
42500,378,65.89,174.75,131.21
42600,89,73.34,-155.27,129.49
42700,98,77.35,-126.62,126.62
42800,897,78.5,-114.02,124.9
42900,290,79.64,-101.41,123.76
43000,282,78.5,-101.99,123.76
43100,282,78.5,-101.99,123.76
43200,158,78.5,-102.56,122.61
43300,96,77.35,-104.85,121.47
43400,155,77.35,-104.85,120.89
43500,136,76.78,-105.42,120.89
43600,74,76.78,-106.0,120.89
43700,94,76.78,-106.0,120.89
43800,66,76.78,-106.0,120.32
43900,32,75.63,-107.72,119.75
44000,47,75.63,-108.29,118.6
44100,74,75.63,-109.43,118.6
44200,30,74.48,-110.58,117.46
44300,66,74.48,-111.15,116.88
44400,25,73.91,-111.15,117.46
44500,53,73.91,-112.3,116.88
